This file contains the corresponding layer temperatures and pressures, and the altitude and the height of each layer.
layer   temp.[K]          press.[10^-6bar]        altitude[cm]         height.of.layer[cm]    conv.unstable?[1:yes,0:no]    conv.lapse-rate?[1:yes,0:no]    pl.eff.temp.[K]   
BOA     4090.26           1e+09                   -2.44286e+08         not_avail.             0                             0                               544.798           
0       4034.45           8.9568e+08              -2.36621e+08         1.53301e+07            0                             0                               
1       3922.9            7.18554e+08             -2.21503e+08         1.49062e+07            0                             0                               
2       3815.67           5.76455e+08             -2.06801e+08         1.44987e+07            0                             0                               
3       3712.43           4.62457e+08             -1.92498e+08         1.41065e+07            0                             0                               
4       3613.06           3.71003e+08             -1.7858e+08          1.37289e+07            0                             0                               
5       3517.33           2.97635e+08             -1.65033e+08         1.33651e+07            0                             0                               
6       3424.93           2.38776e+08             -1.51844e+08         1.3014e+07             0                             0                               
7       3335.63           1.91556e+08             -1.38999e+08         1.26747e+07            0                             0                               
8       3249.3            1.53675e+08             -1.26489e+08         1.23467e+07            0                             0                               
9       3165.67           1.23285e+08             -1.14301e+08         1.20289e+07            0                             0                               
10      3084.44           9.89043e+07             -1.02426e+08         1.17202e+07            0                             0                               
11      3005.29           7.93454e+07             -9.08566e+07         1.14195e+07            0                             0                               
12      2927.82           6.36543e+07             -7.95843e+07         1.11251e+07            0                             0                               
13      2851.6            5.10663e+07             -6.8604e+07          1.08355e+07            0                             0                               
14      2776.09           4.09676e+07             -5.7912e+07          1.05486e+07            0                             0                               
15      2700.67           3.2866e+07              -4.75067e+07         1.0262e+07             0                             0                               
16      2624.44           2.63665e+07             -3.73896e+07         9.97232e+06            0                             0                               
17      2546.12           2.11524e+07             -2.75661e+07         9.67472e+06            0                             0                               
18      2463.75           1.69693e+07             -1.80479e+07         9.36174e+06            0                             1                               
19      2374.42           1.36135e+07             -8.85584e+06         9.02231e+06            0                             1                               
20      2286.8            1.09214e+07             0                    8.68937e+06            0                             1                               
21      2201.35           8.76161e+06             8.52703e+06          8.36468e+06            0                             1                               
22      2117.93           7.02894e+06             1.67332e+07          8.04769e+06            0                             1                               
23      2036.38           5.63892e+06             2.4626e+07           7.73781e+06            0                             1                               
24      1956.56           4.52379e+06             3.22121e+07          7.43451e+06            0                             1                               
25      1878.81           3.62918e+06             3.94989e+07          7.13907e+06            0                             1                               
26      1803.25           2.91149e+06             4.64944e+07          6.85196e+06            0                             1                               
27      1729.8            2.33572e+06             5.32069e+07          6.57289e+06            0                             1                               
28      1658.39           1.87382e+06             5.96441e+07          6.30155e+06            0                             1                               
29      1588.99           1.50326e+06             6.58138e+07          6.03781e+06            0                             1                               
30      1521.67           1.20598e+06             7.17237e+07          5.78203e+06            0                             1                               
31      1456.41           967489                  7.73817e+07          5.53406e+06            0                             1                               
32      1393.16           776162                  8.27956e+07          5.29371e+06            0                             1                               
33      1331.86           622671                  8.79729e+07          5.0608e+06             0                             1                               
34      1272.49           499533                  9.29209e+07          4.83521e+06            0                             1                               
35      1215.02           400747                  9.76469e+07          4.61684e+06            0                             1                               
36      1159.42           321497                  1.02158e+08          4.40556e+06            0                             1                               
37      1105.66           257919                  1.06462e+08          4.20129e+06            0                             1                               
38      1053.74           206914                  1.10564e+08          4.00399e+06            0                             1                               
39      1003.63           165995                  1.14473e+08          3.81357e+06            0                             1                               
40      955.31            133169                  1.18195e+08          3.62998e+06            0                             1                               
41      908.769           106834                  1.21736e+08          3.45313e+06            0                             1                               
42      863.985           85706.6                 1.25104e+08          3.28296e+06            0                             1                               
43      820.934           68757.6                 1.28305e+08          3.11937e+06            0                             1                               
44      779.596           55160.3                 1.31346e+08          2.9623e+06             0                             1                               
45      739.962           44252                   1.34233e+08          2.8117e+06             0                             1                               
46      702.001           35500.9                 1.36973e+08          2.66745e+06            0                             1                               
47      665.674           28480.4                 1.39571e+08          2.52942e+06            0                             1                               
48      630.941           22848.2                 1.42035e+08          2.39744e+06            0                             1                               
49      597.773           18329.8                 1.44369e+08          2.27141e+06            0                             1                               
50      566.127           14705                   1.4658e+08           2.15116e+06            0                             1                               
51      535.956           11797                   1.48674e+08          2.03652e+06            0                             1                               
52      507.214           9464.04                 1.50656e+08          1.92731e+06            0                             1                               
53      479.852           7592.46                 1.52532e+08          1.82334e+06            0                             1                               
54      455.15            6091.01                 1.54308e+08          1.72947e+06            0                             0                               
55      436.218           4886.47                 1.56001e+08          1.65754e+06            0                             0                               
56      419.15            3920.14                 1.57627e+08          1.59268e+06            0                             0                               
57      403.411           3144.91                 1.59189e+08          1.53288e+06            0                             0                               
58      389.571           2522.98                 1.60696e+08          1.48029e+06            0                             0                               
59      378.165           2024.04                 1.62155e+08          1.43695e+06            0                             0                               
60      368.203           1623.78                 1.63573e+08          1.3991e+06             0                             0                               
61      359.696           1302.66                 1.64956e+08          1.36677e+06            0                             0                               
62      353.22            1045.05                 1.6631e+08           1.34216e+06            0                             0                               
63      347.765           838.388                 1.67642e+08          1.32143e+06            0                             0                               
64      342.356           672.591                 1.68953e+08          1.30088e+06            0                             0                               
65      337.399           539.582                 1.70244e+08          1.28205e+06            0                             0                               
66      333.006           432.876                 1.71518e+08          1.26535e+06            0                             0                               
67      329.05            347.272                 1.72776e+08          1.25032e+06            0                             0                               
68      326.217           278.597                 1.74021e+08          1.23955e+06            0                             0                               
69      325.168           223.502                 1.75258e+08          1.23557e+06            0                             0                               
70      324.901           179.303                 1.76493e+08          1.23456e+06            0                             0                               
71      325.768           143.845                 1.7773e+08           1.23785e+06            0                             0                               
72      329.058           115.399                 1.78974e+08          1.25035e+06            0                             0                               
73      333.785           92.5779                 1.80233e+08          1.26831e+06            0                             0                               
74      337.772           74.27                   1.81509e+08          1.28346e+06            0                             0                               
75      342.718           59.5826                 1.82802e+08          1.30225e+06            0                             0                               
76      348.831           47.7998                 1.84116e+08          1.32548e+06            0                             0                               
77      355.458           38.3471                 1.85454e+08          1.35066e+06            0                             0                               
78      362.972           30.7637                 1.86819e+08          1.37922e+06            0                             0                               
79      371.526           24.68                   1.88214e+08          1.41172e+06            0                             0                               
80      379.952           19.7993                 1.89642e+08          1.44374e+06            0                             0                               
81      387.331           15.8839                 1.911e+08            1.47178e+06            0                             0                               
82      394.504           12.7427                 1.92585e+08          1.49903e+06            0                             0                               
83      401.161           10.2228                 1.94097e+08          1.52433e+06            0                             0                               
84      405.99            8.20117                 1.9563e+08           1.54268e+06            0                             0                               
85      409.753           6.57933                 1.9718e+08           1.55697e+06            0                             0                               
86      412.809           5.27823                 1.98743e+08          1.56859e+06            0                             0                               
87      415.106           4.23442                 2.00316e+08          1.57732e+06            0                             0                               
88      416.667           3.39704                 2.01896e+08          1.58325e+06            0                             0                               
89      417.613           2.72525                 2.03481e+08          1.58684e+06            0                             0                               
90      417.92            2.18632                 2.05069e+08          1.58801e+06            0                             0                               
91      417.495           1.75396                 2.06656e+08          1.58639e+06            0                             0                               
92      416.472           1.4071                  2.0824e+08           1.5825e+06             0                             0                               
93      414.96            1.12884                 2.0982e+08           1.57676e+06            0                             0                               
94      413.043           0.905603                2.11393e+08          1.56948e+06            0                             0                               
95      410.905           0.726514                2.12958e+08          1.56135e+06            0                             0                               
96      408.787           0.582841                2.14516e+08          1.5533e+06             0                             0                               
97      406.787           0.467581                2.16065e+08          1.5457e+06             0                             0                               
98      404.818           0.375113                2.17607e+08          1.53822e+06            0                             0                               
99      402.618           0.300932                2.19141e+08          1.52987e+06            0                             0                               
100     399.856           0.241421                2.20666e+08          1.51937e+06            0                             0                               
101     396.136           0.193678                2.22178e+08          1.50523e+06            0                             0                               
102     390.842           0.155377                2.23673e+08          1.48512e+06            0                             0                               
103     382.989           0.12465                 2.25144e+08          1.45528e+06            0                             0                               
104     363.735           0.1                     2.26562e+08          1.38212e+06            0                             0                               
